EMG Data
Time|Raw Data|Scaled Data|High Pass Data|Band Pass Data|Rectified Data|Boxcar Output|Time Spent Calculating
12426120 1009.00 0.48746 0.35557 0.05926 0.05926 0.00059 34
12431111 1006.00 0.48477 0.13106 0.19963 0.19963 0.00259 19
12436111 662.00 0.17652 -0.24024 0.18352 0.18352 0.00442 17
12441110 749.00 0.25448 -0.12941 -0.08344 0.08344 0.00526 17
12446110 621.00 0.13978 -0.19624 -0.25686 0.25686 0.00783 17
12451110 388.00 -0.06900 -0.27214 -0.22041 0.22041 0.01003 17
12456110 665.00 0.17921 0.06566 -0.15919 0.15919 0.01162 17
12461110 459.00 -0.00538 -0.07254 -0.07457 0.07457 0.01237 18
12466110 147.00 -0.28495 -0.19727 -0.02861 0.02861 0.01265 17
12471110 561.00 0.08602 0.25037 -0.05737 0.05737 0.01323 16
12476110 884.00 0.37545 0.40239 0.09106 0.09106 0.01414 17
12481110 843.00 0.33871 0.18887 0.34411 0.34411 0.01758 19
12486110 231.00 -0.20968 -0.33005 0.25199 0.25199 0.02010 17
12491110 453.00 -0.01075 -0.01553 -0.12082 0.12082 0.02131 18
12496111 698.00 0.20878 0.17033 -0.19692 0.19692 0.02328 17
12501111 257.00 -0.18638 -0.20470 0.02855 0.02855 0.02356 17
12506111 733.00 0.24014 0.22490 0.08335 0.08335 0.02440 18
12511111 845.00 0.34050 0.18221 0.05934 0.05934 0.02499 17
12516111 488.00 0.02061 -0.17888 0.11184 0.11184 0.02611 17
12521111 489.00 0.02151 -0.11601 0.00003 0.00003 0.02611 18
12526111 555.00 0.08065 -0.02486 -0.15850 0.15850 0.02769 17
12531111 744.00 0.25000 0.10753 -0.08234 0.08234 0.02852 16
12536111 667.00 0.18100 -0.01273 0.07271 0.07271 0.02924 18
12541111 453.00 -0.01075 -0.16659 0.04294 0.04294 0.02967 17
12546111 453.00 -0.01075 -0.08431 -0.11002 0.11002 0.03077 16
12551111 473.00 0.00717 -0.01232 -0.14394 0.14394 0.03221 18
12556111 454.00 -0.00986 0.00620 -0.03837 0.03837 0.03260 17
12561111 521.00 0.05018 0.07535 0.04342 0.04342 0.03303 18
12566111 662.00 0.17652 0.15251 0.07693 0.07693 0.03380 17
12571111 339.00 -0.11290 -0.13164 0.07855 0.07855 0.03459 17
12576111 309.00 -0.13978 -0.07189 -0.01463 0.01463 0.03473 16
12581111 527.00 0.05556 0.13504 -0.08002 0.08002 0.03553 16
12586111 207.00 -0.23118 -0.12450 -0.00624 0.00624 0.03560 17
12591111 192.00 -0.24462 -0.04335 0.01274 0.01274 0.03572 16
12596111 753.00 0.25806 0.38626 0.00504 0.00504 0.03577 16
12601111 893.00 0.38351 0.28276 0.19359 0.19359 0.03771 16
12606111 453.00 -0.01075 -0.20093 0.29212 0.29212 0.04063 17
12611111 130.00 -0.30018 -0.36147 -0.01948 0.01948 0.04082 16
12616111 45.00 -0.37634 -0.24097 -0.37161 0.37161 0.04454 17
12621111 371.00 -0.08423 0.13149 -0.30630 0.30630 0.04760 16
12626111 802.00 0.30197 0.38474 0.07301 0.07301 0.04833 16
12631111 340.00 -0.11201 -0.12079 0.29992 0.29992 0.05133 16
12636111 96.00 -0.33065 -0.23295 0.09073 0.09073 0.05224 17
12641111 29.00 -0.39068 -0.14208 -0.23640 0.23640 0.05460 16
12646111 157.00 -0.27599 0.05963 -0.22795 0.22795 0.05688 17
12651111 498.00 0.02957 0.30350 0.04933 0.04933 0.05738 16
12656111 187.00 -0.24910 -0.03548 0.22796 0.22796 0.05966 17
12661111 156.00 -0.27688 -0.02889 0.12269 0.12269 0.06088 16
12666111 351.00 -0.10215 0.12605 -0.03658 0.03658 0.06125 17
12671111 254.00 -0.18907 -0.00246 0.00136 0.00136 0.06126 16
12676111 288.00 -0.15860 0.01208 0.07119 0.07119 0.06198 16
12681111 458.00 -0.00627 0.10376 0.04266 0.04266 0.06240 16
12686111 399.00 -0.05914 -0.01686 0.03097 0.03097 0.06271 17
12691111 275.00 -0.17025 -0.12658 0.01015 0.01015 0.06281 16
12696112 394.00 -0.06362 -0.01148 -0.06666 0.06666 0.06348 17
12701111 461.00 -0.00358 0.01519 -0.07269 0.07269 0.06421 16
12706112 347.00 -0.10573 -0.09346 -0.01259 0.01259 0.06433 16
12711112 343.00 -0.10932 -0.06710 -0.02800 0.02800 0.06461 17
12716112 462.00 -0.00269 0.03761 -0.06728 0.06728 0.06528 17
12721112 370.00 -0.08513 -0.04931 -0.02921 0.02921 0.06558 16
12726112 310.00 -0.13889 -0.06648 -0.00569 0.00569 0.06563 17
12731112 450.00 -0.01344 0.06711 -0.03071 0.03071 0.06594 17
12736112 517.00 0.04659 0.08292 0.00781 0.00781 0.06602 17
12741112 397.00 -0.06093 -0.04250 0.06709 0.06709 0.06669 17
12746112 441.00 -0.02151 0.00424 0.02950 0.02950 0.06699 16
12751112 451.00 -0.01254 0.00677 -0.02654 0.02654 0.06725 16
12756112 316.00 -0.13351 -0.08727 -0.02596 0.02596 0.06751 17
12761112 316.00 -0.13351 -0.03499 -0.03653 0.03653 0.06788 16
12766112 374.00 -0.08154 0.03859 -0.04492 0.04492 0.06832 16
12771112 323.00 -0.12724 0.00353 0.00002 0.00002 0.06832 16
12776112 313.00 -0.13620 0.01336 0.03243 0.03243 0.06865 16
12781112 368.00 -0.08692 0.06112 0.02506 0.02506 0.06890 16
12786112 319.00 -0.13082 0.01074 0.02881 0.02881 0.06919 16
12791112 244.00 -0.19803 -0.03432 0.02408 0.02408 0.06943 16
12796112 327.00 -0.12366 0.05057 -0.00278 0.00278 0.06946 17
12801112 351.00 -0.10215 0.05017 0.01025 0.01025 0.06956 17
12806112 247.00 -0.19534 -0.04183 0.03860 0.03860 0.06994 16
12811112 291.00 -0.15591 0.01120 0.01105 0.01105 0.07006 17
12816112 402.00 -0.05645 0.08105 -0.00631 0.00631 0.07012 17
12821112 324.00 -0.12634 -0.01877 0.03234 0.03234 0.07044 16
12826112 292.00 -0.15502 -0.04138 0.02821 0.02821 0.07072 17
12831112 392.00 -0.06541 0.03731 -0.02113 0.02113 0.07094 17
12836112 410.00 -0.04928 0.01856 -0.01148 0.01148 0.07105 17
12841112 305.00 -0.14337 -0.07675 0.01529 0.01529 0.07120 16
12846112 395.00 -0.06272 0.00969 -0.01744 0.01744 0.07138 17
12851112 472.00 0.00627 0.04501 -0.02803 0.02803 0.07166 16
12856112 334.00 -0.11738 -0.08471 0.00625 0.00625 0.07172 16
12861112 347.00 -0.10573 -0.04358 -0.01616 0.01616 0.07188 17
12866113 423.00 -0.03763 0.02642 -0.05432 0.05432 0.07242 16
12871113 349.00 -0.10394 -0.03749 -0.02356 0.02356 0.07266 16
12876113 330.00 -0.12097 -0.02919 0.00044 0.00044 0.07266 17
12881113 443.00 -0.01971 0.06744 -0.00984 0.00984 0.07276 17
12886113 415.00 -0.04480 0.01802 0.01573 0.01573 0.07292 17
12891113 323.00 -0.12724 -0.05252 0.03239 0.03239 0.07324 17
12896113 416.00 -0.04391 0.03917 -0.00473 0.00473 0.07329 17
12901113 453.00 -0.01075 0.04639 -0.00674 0.00674 0.07336 16
12906113 346.00 -0.10663 -0.05090 0.02712 0.02712 0.07363 16
12911113 369.00 -0.08602 -0.01041 0.00478 0.00478 0.07368 16
12916113 463.00 -0.00179 0.05961 -0.02203 0.02203 0.07390 17
12921113 405.00 -0.05376 -0.01124 0.01265 0.01265 0.07402 17
12926113 356.00 -0.09767 -0.04200 0.02279 0.02279 0.07366 17
12931113 456.00 -0.00806 0.04520 -0.01337 0.01337 0.07180 16
12936113 459.00 -0.00538 0.02158 -0.00427 0.00427 0.07001 16
12941113 365.00 -0.08961 -0.05834 0.02112 0.02112 0.06938 16
12946113 448.00 -0.01523 0.02302 -0.00559 0.00559 0.06687 16
12951113 484.00 0.01703 0.03227 -0.01573 0.01573 0.06482 17
12956113 383.00 -0.07348 -0.05767 0.01017 0.01017 0.06333 17
12961113 417.00 -0.04301 -0.00913 -0.00514 0.00514 0.06264 17
12966113 484.00 0.01703 0.04008 -0.02473 0.02473 0.06260 17
12971113 414.00 -0.04570 -0.02902 0.00274 0.00274 0.06205 17
12976113 363.00 -0.09140 -0.04913 0.00406 0.00406 0.06118 16
12981113 475.00 0.00896 0.05480 -0.02418 0.02418 0.05798 16
12986113 452.00 -0.01165 0.01468 -0.00091 0.00091 0.05547 17
12991113 322.00 -0.12814 -0.07873 0.02149 0.02149 0.05448 17
12996113 418.00 -0.04211 0.03159 -0.01732 0.01732 0.05268 17
13001113 490.00 0.02240 0.07129 -0.01641 0.01641 0.05256 16
13006113 317.00 -0.13262 -0.07803 0.03109 0.03109 0.05204 17
13011113 333.00 -0.11828 -0.02232 0.00364 0.00364 0.05148 17
13016113 479.00 0.01254 0.09693 -0.03250 0.03250 0.05069 17
13021114 377.00 -0.07885 -0.01541 0.02052 0.02052 0.05089 17
13026114 328.00 -0.12276 -0.03872 0.04142 0.04142 0.04972 16
13031114 438.00 -0.02419 0.05865 -0.00798 0.00798 0.04898 16
13036114 419.00 -0.04122 0.01751 -0.00349 0.00349 0.04829 17
13041114 311.00 -0.13799 -0.06604 0.02328 0.02328 0.04809 17
13046114 415.00 -0.04480 0.03737 -0.00710 0.00710 0.04706 17
13051114 499.00 0.03047 0.07382 -0.00687 0.00687 0.04569 16
13056114 317.00 -0.13262 -0.09278 0.03149 0.03149 0.04562 17
13061114 350.00 -0.10305 -0.02842 -0.00570 0.00570 0.04524 18
13066114 477.00 0.01075 0.07173 -0.04684 0.04684 0.04494 16
13071114 387.00 -0.06989 -0.02752 0.00351 0.00351 0.04419 16
13076114 330.00 -0.12097 -0.05544 0.02374 0.02374 0.04428 16
13081114 468.00 0.00269 0.06552 -0.01977 0.01977 0.04368 16
13086114 463.00 -0.00179 0.02696 -0.00297 0.00297 0.04365 17
13091114 305.00 -0.14337 -0.09845 0.02718 0.02718 0.04379 16
13096114 406.00 -0.05287 0.01841 -0.02077 0.02077 0.04395 17
13101114 462.00 -0.00269 0.04930 -0.03637 0.03637 0.04238 17
13106114 337.00 -0.11470 -0.05976 0.01441 0.01441 0.03960 16
13111114 393.00 -0.06452 0.00942 0.01153 0.01153 0.03952 16
13116114 515.00 0.04480 0.08873 -0.00697 0.00697 0.03588 17
13121114 380.00 -0.07616 -0.05044 0.02687 0.02687 0.03308 16
13126114 325.00 -0.12545 -0.06567 0.01209 0.01209 0.03247 16
13131114 503.00 0.03405 0.08864 -0.03745 0.03745 0.02985 17
13136114 439.00 -0.02330 -0.00017 -0.00098 0.00098 0.02895 16
13141114 316.00 -0.13351 -0.08676 0.03131 0.03131 0.02690 16
13146114 453.00 -0.01075 0.05003 -0.02003 0.02003 0.02482 17
13151114 489.00 0.02151 0.05012 -0.02048 0.02048 0.02453 16
13156114 333.00 -0.11828 -0.08319 0.02843 0.02843 0.02254 17
13161114 384.00 -0.07258 -0.00677 -0.00250 0.00250 0.02133 16
13166114 524.00 0.05287 0.09396 -0.03044 0.03044 0.02127 16
13171114 428.00 -0.03315 -0.02056 0.02713 0.02713 0.02153 17
13176114 393.00 -0.06452 -0.03956 0.03912 0.03912 0.02121 16
13181114 538.00 0.06541 0.07351 -0.01119 0.01119 0.02090 17
13186115 495.00 0.02688 -0.00062 0.00040 0.00040 0.02059 16
13191115 357.00 -0.09677 -0.10356 0.01633 0.01633 0.02065 17
13196115 488.00 0.02061 0.03237 -0.03457 0.03457 0.02033 17
13201115 511.00 0.04122 0.02990 -0.03616 0.03616 0.01997 17
13206115 398.00 -0.06004 -0.06487 0.01459 0.01459 0.01998 16
13211115 435.00 -0.02688 -0.00753 -0.00129 0.00129 0.01972 16
13216115 535.00 0.06272 0.06632 -0.02503 0.02503 0.01930 17
13221115 381.00 -0.07527 -0.06974 0.00739 0.00739 0.01908 16
13226115 376.00 -0.07975 -0.03411 -0.00031 0.00031 0.01902 16
13231115 465.00 0.00000 0.05290 -0.03452 0.03452 0.01906 17
13236115 434.00 -0.02778 0.01442 0.00028 0.00028 0.01899 17
13241115 415.00 -0.04480 0.00031 0.03953 0.03953 0.01871 17
13246115 485.00 0.01792 0.05138 0.02465 0.02465 0.01866 17
13251115 426.00 -0.03495 -0.01343 0.01283 0.01283 0.01853 17
13256115 329.00 -0.12186 -0.07137 -0.00109 0.00109 0.01828 16
13261115 415.00 -0.04480 0.02826 -0.03341 0.03341 0.01825 17
13266115 527.00 0.05556 0.09502 -0.00760 0.00760 0.01787 17
13271115 429.00 -0.03226 -0.02115 0.05735 0.05735 0.01845 17
13276115 427.00 -0.03405 -0.01851 0.04109 0.04109 0.01853 17
13281115 527.00 0.05556 0.05134 -0.01456 0.01456 0.01843 17
13286115 583.00 0.10573 0.05093 0.00768 0.00768 0.01822 16
13291115 460.00 -0.00448 -0.07624 0.04020 0.04020 0.01838 17
13296115 687.00 0.19892 0.09382 0.00898 0.00898 0.01844 17
13301115 580.00 0.10305 -0.05014 -0.00447 0.00447 0.01838 17
13306115 547.00 0.07348 -0.07394 -0.00618 0.00618 0.01806 16
13311115 612.00 0.13172 -0.01320 -0.04711 0.04711 0.01842 17
13316115 630.00 0.14785 -0.01013 -0.05155 0.05155 0.01887 17
13321115 787.00 0.28853 0.08365 0.00566 0.00566 0.01860 16
13326115 344.00 -0.10842 -0.27192 0.00642 0.00642 0.01839 17
13331115 504.00 0.03495 -0.02603 -0.10205 0.10205 0.01919 16
13336115 687.00 0.19892 0.12824 -0.11580 0.11580 0.02024 17
13341115 787.00 0.28853 0.14071 0.06325 0.06325 0.02072 17
13346116 899.00 0.38889 0.13487 0.19121 0.19121 0.02245 16
13351116 483.00 0.01613 -0.23599 0.09875 0.09875 0.02316 17
13356116 526.00 0.05466 -0.10049 -0.10759 0.10759 0.02418 17
13361116 539.00 0.06631 -0.03113 -0.18387 0.18387 0.02585 16
13366116 753.00 0.25806 0.14541 -0.04504 0.04504 0.02576 16
13371116 867.00 0.36022 0.15506 0.12752 0.12752 0.02680 16
13376116 824.00 0.32168 0.03376 0.16569 0.16569 0.02845 16
13381116 272.00 -0.17294 -0.37172 0.01419 0.01419 0.02850 17
13386116 80.00 -0.34498 -0.29713 -0.24788 0.24788 0.03082 17
13391116 629.00 0.14695 0.27876 -0.28706 0.28706 0.03336 17
13396116 738.00 0.24462 0.26535 0.05571 0.05571 0.03387 17
13401116 201.00 -0.23656 -0.20059 0.28479 0.28479 0.03665 17
13406116 338.00 -0.11380 0.02292 0.06409 0.06409 0.03702 17
13411116 508.00 0.03853 0.16364 -0.11227 0.11227 0.03810 16
13416116 557.00 0.08244 0.13689 0.06130 0.06130 0.03849 17
13421116 391.00 -0.06631 -0.03997 0.18485 0.18485 0.04021 16
13426116 382.00 -0.07437 -0.02880 0.05050 0.05050 0.04049 17
13431116 683.00 0.19534 0.18160 -0.04292 0.04292 0.04079 17
13436116 532.00 0.06004 -0.03264 0.04747 0.04747 0.04122 17
13441116 619.00 0.13799 0.00782 0.08529 0.08529 0.04186 17
13446116 725.00 0.23297 0.03502 0.00787 0.00787 0.04188 17
13451116 206.00 -0.23208 -0.37024 -0.07415 0.07415 0.04247 16
13456116 473.00 0.00717 -0.02014 -0.17229 0.17229 0.04409 17
13461116 482.00 0.01523 0.00277 -0.16418 0.16418 0.04568 17
13466116 506.00 0.03674 0.02687 -0.00849 0.00849 0.04552 17
13471116 545.00 0.07168 0.04774 0.07414 0.07414 0.04623 16
13476116 327.00 -0.12366 -0.11482 0.02146 0.02146 0.04640 16
13481116 753.00 0.25806 0.23851 -0.01403 0.01403 0.04630 17
13486116 371.00 -0.08423 -0.13588 0.04000 0.04000 0.04669 16
13491116 330.00 -0.12097 -0.09285 0.02138 0.02138 0.04669 16
13496116 305.00 -0.14337 -0.04379 -0.09525 0.09525 0.04747 17
13501117 768.00 0.27151 0.31139 -0.04620 0.04620 0.04777 16
13506117 885.00 0.37634 0.22922 0.18828 0.18828 0.04934 16
13511117 253.00 -0.18996 -0.34328 0.22119 0.22119 0.05152 16
13516117 192.00 -0.24462 -0.22878 -0.10602 0.10602 0.05225 16
13521117 368.00 -0.08692 0.02282 -0.31775 0.31775 0.05522 16
13526117 774.00 0.27688 0.30836 -0.07346 0.07346 0.05554 16
13531117 506.00 0.03674 -0.02457 0.22928 0.22928 0.05776 16
13536117 739.00 0.24552 0.12689 0.19133 0.19133 0.05964 16
13541117 659.00 0.17384 -0.01933 0.02290 0.02290 0.05963 16
13546117 411.00 -0.04839 -0.20900 -0.04893 0.04893 0.06005 16
13551117 351.00 -0.10215 -0.15869 -0.12710 0.12710 0.06125 17
13556117 349.00 -0.10394 -0.06877 -0.18222 0.18222 0.06276 16
13561117 436.00 -0.02599 0.05197 -0.09753 0.09753 0.06368 16
13566117 666.00 0.18011 0.20692 0.06038 0.06038 0.06381 16
13571117 733.00 0.24014 0.15438 0.17623 0.17623 0.06554 16
13576117 196.00 -0.24104 -0.29330 0.12030 0.12030 0.06651 16
13581117 607.00 0.12724 0.13033 -0.07200 0.07200 0.06703 17
13586117 455.00 -0.00896 -0.03017 -0.10089 0.10089 0.06801 17
13591117 283.00 -0.16308 -0.12423 0.00449 0.00449 0.06778 16
13596117 393.00 -0.06452 0.03001 -0.01685 0.01685 0.06774 16
13601117 626.00 0.14427 0.19096 -0.02181 0.02181 0.06760 16
13606117 444.00 -0.01882 -0.02229 0.09169 0.09169 0.06837 16
13611117 166.00 -0.26792 -0.19688 0.06380 0.06380 0.06889 17
13616117 238.00 -0.20341 -0.03128 -0.11353 0.11353 0.06996 17
13621117 458.00 -0.00627 0.16169 -0.11211 0.11211 0.07081 16
13626117 635.00 0.15233 0.21462 0.10600 0.10600 0.07175 17
13631117 358.00 -0.09588 -0.08770 0.20570 0.20570 0.07343 17
13636117 193.00 -0.24373 -0.16631 0.02736 0.02736 0.07369 16
13641117 254.00 -0.18907 -0.03693 -0.16596 0.16596 0.07504 17
13646117 472.00 0.00627 0.14144 -0.10178 0.10178 0.07586 17
13651117 401.00 -0.05735 0.02703 0.08436 0.08436 0.07650 17
13656117 330.00 -0.12097 -0.03946 0.10543 0.10543 0.07727 16
13661117 385.00 -0.07168 0.01178 -0.00880 0.00880 0.07733 16
13666118 473.00 0.00717 0.05769 -0.03487 0.03487 0.07737 17
13671118 396.00 -0.06183 -0.03618 0.02506 0.02506 0.07735 17
13676118 347.00 -0.10573 -0.06478 0.01354 0.01354 0.07710 17
13681118 457.00 -0.00717 0.03233 -0.04383 0.04383 0.07742 17
13686118 379.00 -0.07706 -0.04432 -0.03415 0.03415 0.07776 17
13691118 336.00 -0.11559 -0.05630 -0.01156 0.01156 0.07771 17
13696118 505.00 0.03584 0.08473 -0.01941 0.01941 0.07756 16
13701118 468.00 0.00269 0.01299 0.01285 0.01285 0.07733 17
13706118 313.00 -0.13620 -0.10507 0.02844 0.02844 0.07747 17
13711118 363.00 -0.09140 -0.01831 -0.03925 0.03925 0.07785 16
13716118 405.00 -0.05376 0.02694 -0.06451 0.06451 0.07824 17
13721118 296.00 -0.15143 -0.05009 -0.00846 0.00846 0.07825 17
13726118 322.00 -0.12814 0.00630 0.00793 0.00793 0.07833 17
13731118 391.00 -0.06631 0.06580 -0.00362 0.00362 0.07802 17
13736118 333.00 -0.11828 0.00629 0.02611 0.02611 0.07828 16
13741118 285.00 -0.16129 -0.01912 0.03511 0.03511 0.07823 17
13746118 374.00 -0.08154 0.06050 0.00593 0.00593 0.07805 17
13751118 351.00 -0.10215 0.02110 0.01355 0.01355 0.07805 17
13756118 259.00 -0.18459 -0.04868 0.02752 0.02752 0.07832 16
13761118 303.00 -0.14516 0.00989 -0.00657 0.00657 0.07805 17
13766118 337.00 -0.11470 0.03320 -0.01952 0.01952 0.07817 16
13771118 252.00 -0.19086 -0.03740 0.00939 0.00939 0.07769 17
13776118 272.00 -0.17294 -0.00118 0.00586 0.00586 0.07734 16
13781118 349.00 -0.10394 0.05565 -0.00762 0.00762 0.07727 17
13786118 279.00 -0.16667 -0.01885 0.01590 0.01590 0.07735 17
13791118 268.00 -0.17652 -0.01809 0.01773 0.01773 0.07713 16
13796118 339.00 -0.11290 0.03806 -0.00815 0.00815 0.07712 16
13801118 298.00 -0.14964 -0.01158 -0.00099 0.00099 0.07708 16
13806118 242.00 -0.19982 -0.04714 0.00509 0.00509 0.07707 17
13811118 328.00 -0.12276 0.03330 -0.01713 0.01713 0.07677 17
13816118 329.00 -0.12186 0.01547 -0.00797 0.00797 0.07634 16
13821118 257.00 -0.18638 -0.04476 0.01478 0.01478 0.07643 16
13826119 246.00 -0.19624 -0.03081 -0.01158 0.01158 0.07648 17
13831119 351.00 -0.10215 0.05739 -0.03057 0.03057 0.07576 17
13836119 271.00 -0.17384 -0.02485 0.00555 0.00555 0.07466 16
13841119 266.00 -0.17832 -0.01619 0.01863 0.01863 0.07422 17
13846119 348.00 -0.10484 0.04790 -0.00482 0.00482 0.07235 17
13851119 322.00 -0.12814 0.00427 0.00622 0.00622 0.07143 16
13856119 258.00 -0.18548 -0.04514 0.01747 0.01747 0.07053 17
13861119 318.00 -0.13172 0.01598 -0.01186 0.01186 0.06881 17
13866119 356.00 -0.09767 0.03185 -0.01438 0.01438 0.06850 18
13871119 294.00 -0.15323 -0.03019 0.01531 0.01531 0.06738 16
13876119 350.00 -0.10305 0.01785 0.01126 0.01126 0.06583 17
13881119 359.00 -0.09498 0.00973 -0.00435 0.00435 0.06573 16
13886119 298.00 -0.14964 -0.04244 -0.00207 0.00207 0.06328 16
13891119 290.00 -0.15681 -0.02963 -0.01687 0.01687 0.06057 17
13896119 374.00 -0.08154 0.04220 -0.02669 0.02669 0.06028 16
13901119 360.00 -0.09409 0.01059 0.00660 0.00660 0.05750 17
13906119 292.00 -0.15502 -0.04329 0.02314 0.02314 0.05709 17
13911119 338.00 -0.11380 0.00906 -0.01001 0.01001 0.05607 17
13916119 348.00 -0.10484 0.01262 -0.02096 0.02096 0.05567 16
13921119 305.00 -0.14337 -0.02166 0.00335 0.00335 0.05385 16
13926119 358.00 -0.09588 0.02644 0.00839 0.00839 0.05343 16
13931119 414.00 -0.04570 0.05048 0.01179 0.01179 0.05312 17
13936119 349.00 -0.10394 -0.02373 0.02810 0.02810 0.05293 16
13941119 336.00 -0.11559 -0.02660 0.00942 0.00942 0.05217 16
13946119 420.00 -0.04032 0.03892 -0.01963 0.01963 0.05228 17
13951119 386.00 -0.07079 -0.00945 -0.00251 0.00251 0.05157 16
13956119 364.00 -0.09050 -0.02670 0.01240 0.01240 0.04997 16
13961119 422.00 -0.03853 0.02000 -0.00741 0.00741 0.04840 17
13966119 431.00 -0.03047 0.00965 -0.00744 0.00744 0.04839 16
13971119 363.00 -0.09140 -0.04819 0.00482 0.00482 0.04770 16
13976119 387.00 -0.06989 -0.01191 -0.01544 0.01544 0.04764 17
13981119 451.00 -0.01254 0.03583 -0.02408 0.02408 0.04774 17
13986120 385.00 -0.07168 -0.02870 0.00429 0.00429 0.04738 16
13991120 378.00 -0.07796 -0.02008 0.00626 0.00626 0.04723 16
13996120 453.00 -0.01075 0.04181 -0.01288 0.01288 0.04641 16
14001120 421.00 -0.03943 -0.00081 0.00386 0.00386 0.04598 17
14006120 366.00 -0.08871 -0.03837 0.01505 0.01505 0.04425 16
14011120 413.00 -0.04659 0.01442 -0.01151 0.01151 0.04215 17
14016120 427.00 -0.03405 0.01960 -0.01386 0.01386 0.04123 16
14021120 389.00 -0.06810 -0.01414 0.01209 0.01209 0.03818 16
14026120 401.00 -0.05735 0.00298 0.01025 0.01025 0.03754 16
14031120 461.00 -0.00358 0.04346 0.00090 0.00090 0.03526 16
14036120 388.00 -0.06900 -0.02840 0.01271 0.01271 0.03347 17
14041120 377.00 -0.07885 -0.02222 0.00402 0.00402 0.03328 17
14046120 495.00 0.02688 0.06894 -0.01082 0.01082 0.03290 16
14051120 425.00 -0.03584 -0.01575 0.01466 0.01466 0.03178 16
14056120 353.00 -0.10036 -0.06066 0.01639 0.01639 0.03012 17
14061120 447.00 -0.01613 0.03286 -0.02613 0.02613 0.02941 17
14066120 467.00 0.00179 0.02981 -0.01702 0.01702 0.02897 17
14071120 409.00 -0.05018 -0.02753 0.02534 0.02534 0.02746 17
14076120 409.00 -0.05018 -0.01649 0.00954 0.00954 0.02636 17
14081120 452.00 -0.01165 0.02003 -0.02215 0.02215 0.02586 16
14086120 392.00 -0.06541 -0.03072 -0.01112 0.01112 0.02496 17
14091120 393.00 -0.06452 -0.01315 -0.00290 0.00290 0.02494 17
14096120 523.00 0.05197 0.08315 -0.00104 0.00104 0.02479 16
14101120 529.00 0.05735 0.04107 0.03769 0.03769 0.02494 16
14106120 450.00 -0.01344 -0.04443 0.05285 0.05285 0.02456 17
14111120 502.00 0.03315 0.00070 -0.00027 0.00027 0.02392 17
14116120 553.00 0.07885 0.02296 -0.02881 0.02881 0.02307 17
14121120 477.00 0.01075 -0.05283 -0.00429 0.00429 0.02200 16
14126120 583.00 0.10573 0.03261 0.00022 0.00022 0.02094 17
14131121 562.00 0.08692 -0.01040 -0.00659 0.00659 0.01895 17
14136120 498.00 0.02957 -0.06081 -0.00791 0.00791 0.01875 16
14141120 622.00 0.14068 0.04403 -0.02064 0.02064 0.01730 16
14146121 687.00 0.19892 0.05487 0.00166 0.00166 0.01630 16
14151121 568.00 0.09229 -0.06873 0.03474 0.03474 0.01580 17
14156121 527.00 0.05556 -0.07436 -0.01253 0.01253 0.01487 16
14161121 641.00 0.15771 0.03559 -0.06804 0.06804 0.01547 16
14166121 591.00 0.11290 -0.01712 -0.02951 0.02951 0.01541 17
14171121 513.00 0.04301 -0.05998 0.00953 0.00953 0.01526 16
14176121 584.00 0.10663 0.02527 -0.01857 0.01857 0.01531 17
14181121 753.00 0.25806 0.13326 -0.00117 0.00117 0.01488 16
14186121 775.00 0.27778 0.07557 0.08805 0.08805 0.01542 17
14191121 479.00 0.01254 -0.17602 0.07968 0.07968 0.01610 17
14196121 698.00 0.20878 0.05168 -0.04875 0.04875 0.01639 16
14201121 894.00 0.38441 0.15086 -0.05099 0.05099 0.01678 16
14206121 393.00 -0.06452 -0.27574 0.04223 0.04223 0.01691 16
14211121 492.00 0.02419 -0.07047 -0.04858 0.04858 0.01701 17
14216121 645.00 0.16129 0.08810 -0.14735 0.14735 0.01783 17
14221121 547.00 0.07348 -0.00094 -0.02110 0.02110 0.01796 16
14226121 881.00 0.37276 0.23670 0.12040 0.12040 0.01909 16
14231121 874.00 0.36649 0.10540 0.15717 0.15717 0.02062 17
14236121 348.00 -0.10484 -0.32329 0.07688 0.07688 0.02113 16
14241121 359.00 -0.09498 -0.15472 -0.14767 0.14767 0.02225 17
14246121 826.00 0.32348 0.25957 -0.20380 0.20380 0.02423 17
14251121 890.00 0.38082 0.18127 0.07798 0.07798 0.02488 17
14256121 667.00 0.18100 -0.07695 0.24974 0.24974 0.02710 16
14261121 654.00 0.16935 -0.06946 0.05785 0.05785 0.02761 17
14266121 924.00 0.41129 0.12772 -0.10495 0.10495 0.02847 17
14271121 618.00 0.13710 -0.16516 -0.03050 0.03050 0.02868 16
14276121 180.00 -0.25538 -0.38529 -0.05953 0.05953 0.02921 16
14281121 352.00 -0.10125 -0.04311 -0.25096 0.25096 0.03165 17
14286121 320.00 -0.12993 0.02109 -0.21837 0.21837 0.03367 16
14291121 568.00 0.09229 0.24459 0.04919 0.04919 0.03399 17
14296121 668.00 0.18190 0.23730 0.23800 0.23800 0.03629 16
14301121 723.00 0.23118 0.17003 0.25640 0.25640 0.03884 17
14306122 553.00 0.07885 -0.04170 0.15815 0.15815 0.04037 16
14311122 525.00 0.05376 -0.06089 0.00810 0.00810 0.04028 17
14316122 809.00 0.30824 0.13747 -0.05276 0.05276 0.04073 17
14321122 527.00 0.05556 -0.15222 0.00327 0.00327 0.04061 16
14326122 386.00 -0.07079 -0.19690 -0.03276 0.03276 0.04083 16
14331122 471.00 0.00538 -0.04507 -0.16025 0.16025 0.04212 16
14336122 815.00 0.31362 0.21346 -0.09986 0.09986 0.04307 17
14341122 690.00 0.20161 0.01314 0.10698 0.10698 0.04395 16
14346122 738.00 0.24462 0.01499 0.14157 0.14157 0.04532 17
14351122 808.00 0.30735 0.02512 0.01817 0.01817 0.04544 17
14356122 370.00 -0.08513 -0.30871 -0.07640 0.07640 0.04602 16
14361122 329.00 -0.12186 -0.18187 -0.17566 0.17566 0.04766 17
14366122 502.00 0.03315 0.05758 -0.20604 0.20604 0.04958 17
14371122 433.00 -0.02867 0.02530 -0.05083 0.05083 0.04993 17
14376122 787.00 0.28853 0.28684 0.12761 0.12761 0.05110 16
14381122 561.00 0.08602 0.00725 0.18382 0.18382 0.05289 16
14386122 297.00 -0.15054 -0.16849 0.08064 0.08064 0.05368 17
14391122 502.00 0.03315 0.07000 -0.08242 0.08242 0.05433 16
14396122 552.00 0.07796 0.08727 -0.06037 0.06037 0.05467 16
14401122 824.00 0.32168 0.22890 0.11618 0.11618 0.05577 17
14406122 258.00 -0.18548 -0.28054 0.14312 0.14312 0.05697 16
14411122 709.00 0.21864 0.15124 -0.02479 0.02479 0.05711 17
14416122 506.00 0.03674 -0.07009 -0.08589 0.08589 0.05776 16
14421122 305.00 -0.14337 -0.17868 -0.02769 0.02769 0.05801 16
14426122 386.00 -0.07079 -0.02550 -0.07480 0.07480 0.05867 16
14431122 675.00 0.18817 0.19854 -0.07145 0.07145 0.05927 17
14436122 689.00 0.20072 0.10979 0.09997 0.09997 0.05999 16
14441122 296.00 -0.15143 -0.22226 0.13669 0.13669 0.06126 16
14446122 242.00 -0.19982 -0.14625 -0.08085 0.08085 0.06187 17
14451122 488.00 0.02061 0.11454 -0.19243 0.19243 0.06377 16
14456122 587.00 0.10932 0.14366 -0.00201 0.00201 0.06367 17
14461122 438.00 -0.02419 -0.02375 0.16491 0.16491 0.06524 16
14466123 317.00 -0.13262 -0.09221 0.06435 0.06435 0.06581 17
14471123 435.00 -0.02688 0.04125 -0.08213 0.08213 0.06658 16
14476123 275.00 -0.17025 -0.07472 -0.06334 0.06334 0.06706 16
14481123 334.00 -0.11738 0.01881 -0.00159 0.00159 0.06684 16
14486123 558.00 0.08333 0.17548 0.02928 0.02928 0.06709 16
14491123 785.00 0.28674 0.23466 0.12433 0.12433 0.06827 17
14496123 325.00 -0.12545 -0.22245 0.16137 0.16137 0.06975 17
14501123 276.00 -0.16935 -0.16981 -0.03440 0.03440 0.07006 16
14506123 156.00 -0.27688 -0.16414 -0.23816 0.23816 0.07229 16
14511123 191.00 -0.24552 -0.03272 -0.19804 0.19804 0.07416 17
14516123 184.00 -0.25179 0.01990 -0.04403 0.04403 0.07446 17
14521123 246.00 -0.19624 0.09559 0.04818 0.04818 0.07482 17
14526123 345.00 -0.10753 0.15022 0.09201 0.09201 0.07564 16
14531123 422.00 -0.03853 0.14423 0.13420 0.13420 0.07697 16
14536123 365.00 -0.08961 0.03025 0.13753 0.13753 0.07822 16
14541123 291.00 -0.15591 -0.05006 0.05920 0.05920 0.07877 17
14546123 434.00 -0.02778 0.05248 -0.02296 0.02296 0.07889 17
14551123 369.00 -0.08602 -0.04051 -0.02023 0.02023 0.07895 17
14556123 325.00 -0.12545 -0.07439 -0.00710 0.00710 0.07885 17
14561123 377.00 -0.07885 -0.02151 -0.04555 0.04555 0.07905 16
14566123 374.00 -0.08154 -0.02779 -0.05697 0.05697 0.07945 17
14571123 333.00 -0.11828 -0.05294 -0.03069 0.03069 0.07950 17
14576123 360.00 -0.09409 -0.01423 -0.02733 0.02733 0.07968 17
14581123 424.00 -0.03674 0.03330 -0.02244 0.02244 0.07968 17
14586123 334.00 -0.11738 -0.04649 0.00207 0.00207 0.07959 16
14591123 329.00 -0.12186 -0.02598 -0.00582 0.00582 0.07962 16
14596123 401.00 -0.05735 0.04051 -0.02462 0.02462 0.07986 17
14601123 376.00 -0.07975 0.00783 0.00276 0.00276 0.07951 17
14606123 323.00 -0.12724 -0.02829 0.02334 0.02334 0.07921 16
14611123 401.00 -0.05735 0.04321 0.00280 0.00280 0.07924 17
14616123 372.00 -0.08333 0.00577 0.00195 0.00195 0.07897 17
14621124 281.00 -0.16487 -0.05531 0.00962 0.00962 0.07902 16
14626124 303.00 -0.14516 -0.00507 -0.01906 0.01906 0.07921 16
14631124 354.00 -0.09946 0.04285 -0.02530 0.02530 0.07940 17
14636124 300.00 -0.14785 -0.00551 0.01511 0.01511 0.07947 16
14641124 282.00 -0.16398 -0.00629 0.02520 0.02520 0.07951 17
14646124 354.00 -0.09946 0.05379 0.00517 0.00517 0.07955 17
14651124 300.00 -0.14785 -0.00427 0.01372 0.01372 0.07934 16
14656124 254.00 -0.18907 -0.02968 0.01704 0.01704 0.07938 17
14661124 306.00 -0.14247 0.02522 -0.00838 0.00838 0.07879 17
14666124 295.00 -0.15233 0.00963 -0.00702 0.00702 0.07856 17
14671124 236.00 -0.20520 -0.03178 0.00997 0.00997 0.07857 17
14676124 286.00 -0.16039 0.02201 -0.00086 0.00086 0.07839 17
14681124 311.00 -0.13799 0.03111 -0.00142 0.00142 0.07839 16
14686124 246.00 -0.19624 -0.02801 0.01688 0.01688 0.07768 17
14691124 216.00 -0.22312 -0.03310 0.00017 0.00017 0.07689 17
14696124 312.00 -0.13710 0.05149 -0.02242 0.02242 0.07662 17
14701124 317.00 -0.13262 0.02936 0.00936 0.00936 0.07621 17
14706124 240.00 -0.20161 -0.04137 0.03548 0.03548 0.07614 17
14711124 293.00 -0.15412 0.01111 0.00131 0.00131 0.07567 17
14716124 331.00 -0.12007 0.02704 -0.01755 0.01755 0.07437 17
14721124 297.00 -0.15054 -0.01651 0.00899 0.00899 0.07425 16
14726124 304.00 -0.14427 -0.01160 0.01103 0.01103 0.07315 16
14731124 358.00 -0.09588 0.02263 -0.00878 0.00878 0.07167 17
14736124 304.00 -0.14427 -0.03400 -0.00658 0.00658 0.07097 17
14741124 312.00 -0.13710 -0.01942 -0.00793 0.00793 0.06957 16
14746124 397.00 -0.06093 0.04132 -0.01386 0.01386 0.06767 17
14751124 360.00 -0.09409 -0.01258 0.00583 0.00583 0.06695 17
14756124 304.00 -0.14427 -0.05261 0.00698 0.00698 0.06452 17
14761124 387.00 -0.06989 0.02464 -0.02354 0.02354 0.06418 17
14766124 419.00 -0.04122 0.02911 -0.01356 0.01356 0.06326 17
14771124 324.00 -0.12634 -0.05609 0.01660 0.01660 0.06312 17
14776124 374.00 -0.08154 0.00156 -0.00461 0.00461 0.06257 17
14781125 449.00 -0.01434 0.04898 -0.01979 0.01979 0.06026 17
14786125 375.00 -0.08065 -0.03030 0.01241 0.01241 0.05820 17
14791125 383.00 -0.07348 -0.01462 0.01376 0.01376 0.05785 16
14796125 477.00 0.01075 0.05243 -0.00969 0.00969 0.05557 17
14801125 461.00 -0.00358 0.00844 0.01068 0.01068 0.05311 16
14806125 405.00 -0.05376 -0.04313 0.02404 0.02404 0.05177 16
14811125 472.00 0.00627 0.01575 -0.00954 0.00954 0.05178 17
14816125 486.00 0.01882 0.01005 -0.01862 0.01862 0.05144 16
14821125 406.00 -0.05287 -0.05626 -0.00049 0.00049 0.05141 17
14826125 484.00 0.01703 0.02013 -0.01092 0.01092 0.05119 17
14831125 547.00 0.07348 0.04861 -0.00813 0.00813 0.04967 16
14836125 471.00 0.00538 -0.03442 0.02289 0.02289 0.04890 16
14841125 451.00 -0.01254 -0.03734 0.00693 0.00693 0.04790 16
14846125 544.00 0.07079 0.04089 -0.02860 0.02860 0.04677 17
14851125 498.00 0.02957 -0.01391 -0.00859 0.00859 0.04668 17
14856125 422.00 -0.03853 -0.06054 0.00671 0.00671 0.04598 16
14861125 500.00 0.03136 0.02513 -0.02336 0.02336 0.04446 16
14866125 510.00 0.04032 0.02396 -0.01827 0.01827 0.04258 16
14871125 437.00 -0.02509 -0.03361 0.01664 0.01664 0.04224 17
14876125 485.00 0.01792 0.02068 0.00890 0.00890 0.04105 17
14881125 531.00 0.05914 0.04630 -0.00030 0.00030 0.03922 16
14886125 449.00 -0.01434 -0.03022 0.01988 0.01988 0.03861 17
14891125 452.00 -0.01165 -0.01085 0.00978 0.00978 0.03788 17
14896125 494.00 0.02599 0.02712 -0.01493 0.01493 0.03743 16
14901125 483.00 0.01613 0.00910 0.00135 0.00135 0.03628 17
14906125 427.00 -0.03405 -0.03126 0.01606 0.01606 0.03501 16
14911125 487.00 0.01971 0.02789 -0.00237 0.00237 0.03478 17
14916125 498.00 0.02957 0.02352 -0.00161 0.00161 0.03394 17
14921125 423.00 -0.03763 -0.03879 0.01481 0.01481 0.03381 16
14926125 452.00 -0.01165 0.00156 -0.00219 0.00219 0.03309 17
14931125 517.00 0.04659 0.04661 -0.01186 0.01186 0.03249 16
14936125 463.00 -0.00179 -0.01430 0.01597 0.01597 0.03165 16
14941125 415.00 -0.04480 -0.04135 0.01348 0.01348 0.03042 17
14946126 506.00 0.03674 0.04116 -0.01852 0.01852 0.02980 16
14951126 461.00 -0.00358 -0.00986 -0.00861 0.00861 0.02796 16
14956126 403.00 -0.05556 -0.04443 0.00753 0.00753 0.02801 16
14961126 497.00 0.02867 0.04329 -0.01020 0.01020 0.02647 16
14966126 514.00 0.04391 0.03357 0.00087 0.00087 0.02583 16
14971126 439.00 -0.02330 -0.03726 0.02822 0.02822 0.02529 16
14976126 463.00 -0.00179 -0.00536 0.00419 0.00419 0.02470 16
14981126 514.00 0.04391 0.02996 -0.02013 0.02013 0.02489 16
14986126 432.00 -0.02957 -0.04292 -0.00246 0.00246 0.02462 17
14991126 430.00 -0.03136 -0.02335 -0.00456 0.00456 0.02342 17
14996126 525.00 0.05376 0.05444 -0.01825 0.01825 0.02199 17
15001126 491.00 0.02330 0.00374 0.01054 0.01054 0.02175 16
15006126 410.00 -0.04928 -0.05499 0.02212 0.02212 0.01959 17
15011126 475.00 0.00896 0.01735 -0.01717 0.01717 0.01778 16
15016126 522.00 0.05108 0.04209 -0.01855 0.01855 0.01753 16
15021126 428.00 -0.03315 -0.04321 0.01908 0.01908 0.01723 17
15026126 421.00 -0.03943 -0.02553 0.00426 0.00426 0.01636 17
15031126 483.00 0.01613 0.03338 -0.02815 0.02815 0.01530 17
15036126 461.00 -0.00358 0.00551 -0.00378 0.00378 0.01396 17
15041126 410.00 -0.04928 -0.02895 0.01975 0.01975 0.01356 16
15046126 479.00 0.01254 0.03579 0.00107 0.00107 0.01335 17
15051126 445.00 -0.01792 -0.00201 -0.00258 0.00258 0.01317 17
15056126 410.00 -0.04928 -0.02255 0.00795 0.00795 0.01318 16
15061126 465.00 0.00000 0.02886 -0.00065 0.00065 0.01273 16
15066126 452.00 -0.01165 0.00768 0.00145 0.00145 0.01217 16
15071126 382.00 -0.07437 -0.04225 0.00769 0.00769 0.01194 17
15076126 407.00 -0.05197 -0.00042 -0.01303 0.01303 0.01180 16
15081126 494.00 0.02599 0.06303 -0.01211 0.01211 0.01170 17
15086126 417.00 -0.04301 -0.01974 0.02532 0.02532 0.01193 17
15091126 390.00 -0.06720 -0.02883 0.02081 0.02081 0.01208 17
15096126 534.00 0.06183 0.08228 -0.00850 0.00850 0.01192 17
15101127 488.00 0.02061 0.00449 0.01725 0.01725 0.01206 17
15106127 414.00 -0.04570 -0.05754 0.03182 0.03182 0.01215 17
15111127 456.00 -0.00806 -0.00736 -0.01979 0.01979 0.01232 16
15116127 460.00 -0.00448 -0.00474 -0.04310 0.04310 0.01273 17
15121127 439.00 -0.02330 -0.01916 -0.01224 0.01224 0.01276 16
15126127 579.00 0.10215 0.08132 0.01475 0.01475 0.01271 17
15131127 692.00 0.20341 0.10461 0.05180 0.05180 0.01298 17
15136127 499.00 0.03047 -0.10109 0.06801 0.06801 0.01351 17
15141127 422.00 -0.03853 -0.12273 -0.02241 0.02241 0.01348 17
15146127 445.00 -0.01792 -0.05113 -0.12566 0.12566 0.01468 17
15151127 528.00 0.05645 0.03547 -0.09039 0.09039 0.01545 16
15156127 565.00 0.08961 0.04827 0.02165 0.02165 0.01550 16
15161127 460.00 -0.00448 -0.04379 0.05618 0.05618 0.01597 17
15166127 586.00 0.10842 0.06558 0.01186 0.01186 0.01602 17
15171127 593.00 0.11470 0.03710 0.00640 0.00640 0.01599 16
15176127 466.00 0.00090 -0.07155 0.02816 0.02816 0.01626 16
15181127 583.00 0.10573 0.04051 -0.00168 0.00168 0.01626 17
15186127 442.00 -0.02061 -0.07416 -0.03109 0.03109 0.01640 16
15191127 235.00 -0.20609 -0.16678 -0.05599 0.05599 0.01696 17
15196127 612.00 0.13172 0.19352 -0.07110 0.07110 0.01745 16
15201127 524.00 0.05287 0.05611 0.02902 0.02902 0.01765 17
15206127 522.00 0.05108 0.03125 0.12593 0.12593 0.01855 16
15211127 863.00 0.35663 0.23689 0.10574 0.10574 0.01960 16
15216127 335.00 -0.11649 -0.26024 0.05807 0.05807 0.02000 17
15221127 150.00 -0.28226 -0.26606 -0.08606 0.08606 0.02077 17
15226127 412.00 -0.04749 0.06447 -0.23228 0.23228 0.02298 17
15231127 814.00 0.31272 0.32724 -0.06094 0.06094 0.02351 16
15236127 474.00 0.00806 -0.06553 0.21802 0.21802 0.02562 17
15241127 361.00 -0.09319 -0.11928 0.14203 0.14203 0.02696 16
15246127 656.00 0.17115 0.13567 -0.08793 0.08793 0.02770 17
15251128 363.00 -0.09140 -0.13365 -0.07235 0.07235 0.02837 16
15256127 562.00 0.08692 0.06339 0.02100 0.02100 0.02851 17
15261128 453.00 -0.01075 -0.04235 0.00454 0.00454 0.02832 17
15266128 526.00 0.05466 0.02632 -0.01437 0.01437 0.02832 17
15271128 326.00 -0.12455 -0.11949 -0.01888 0.01888 0.02835 16
15276128 763.00 0.26703 0.23781 -0.00922 0.00922 0.02839 17
15281128 706.00 0.21595 0.06989 0.08149 0.08149 0.02901 17
15286128 189.00 -0.24731 -0.33427 0.08130 0.08130 0.02970 16
15291128 411.00 -0.04839 -0.01819 -0.12275 0.12275 0.03079 16
15296128 490.00 0.02240 0.06243 -0.18127 0.18127 0.03251 16
15301128 561.00 0.08602 0.09369 0.02294 0.02294 0.03263 17
15306128 216.00 -0.22312 -0.17438 0.10639 0.10639 0.03345 17
15311128 580.00 0.10305 0.17379 -0.00862 0.00862 0.03344 17
15316128 596.00 0.11738 0.10801 -0.00214 0.00214 0.03328 17
15321128 584.00 0.10663 0.03749 0.12096 0.12096 0.03448 17
15326128 614.00 0.13351 0.01885 0.10557 0.10557 0.03543 17
15331128 506.00 0.03674 -0.08777 -0.00878 0.00878 0.03543 16
15336128 632.00 0.14964 0.01835 -0.06035 0.06035 0.03581 17
15341128 512.00 0.04211 -0.09080 -0.04378 0.04378 0.03618 16
15346128 794.00 0.29480 0.12587 -0.00976 0.00976 0.03599 17
15351128 390.00 -0.06720 -0.22736 -0.00271 0.00271 0.03593 17
15356128 124.00 -0.30556 -0.29235 -0.11135 0.11135 0.03698 17
15361128 704.00 0.21416 0.27433 -0.19225 0.19225 0.03867 17
15366128 384.00 -0.07258 -0.04687 -0.01760 0.01760 0.03866 17
15371128 346.00 -0.10663 -0.02352 0.12517 0.12517 0.03974 16
15376128 679.00 0.19176 0.23873 0.05618 0.05618 0.04022 17
15381128 652.00 0.16756 0.10940 0.07630 0.07630 0.04098 17
15386128 345.00 -0.10753 -0.16109 0.12457 0.12457 0.04202 16
15391128 175.00 -0.25986 -0.19393 -0.04381 0.04381 0.04236 17
15396128 341.00 -0.11111 0.03867 -0.19435 0.19435 0.04416 16
15401128 695.00 0.20609 0.28352 -0.04262 0.04262 0.04457 17
15406128 515.00 0.04480 0.02340 0.19746 0.19746 0.04639 17
15411128 512.00 0.04211 -0.00617 0.17308 0.17308 0.04809 16
15416129 856.00 0.35036 0.20219 0.02375 0.02375 0.04831 16
15421128 880.00 0.37186 0.06839 0.05561 0.05561 0.04872 17
15426129 394.00 -0.06362 -0.35519 0.06715 0.06715 0.04937 17
15431129 418.00 -0.04211 -0.20093 -0.16173 0.16173 0.05087 17
15436129 279.00 -0.16667 -0.19524 -0.32158 0.32158 0.05393 17
15441129 298.00 -0.14964 -0.05503 -0.21255 0.21255 0.05592 16
15446129 281.00 -0.16487 0.01233 -0.04938 0.04938 0.05623 17
15451129 199.00 -0.23835 0.01261 0.01906 0.01906 0.05633 17
15456129 292.00 -0.15502 0.13373 0.04204 0.04204 0.05668 17
15461129 449.00 -0.01434 0.22718 0.10673 0.10673 0.05764 17
15466129 529.00 0.05735 0.19587 0.20118 0.20118 0.05964 16
15471129 390.00 -0.06720 0.00505 0.19907 0.19907 0.06135 17
15476129 479.00 0.01254 0.04713 0.07911 0.07911 0.06210 17
15481129 521.00 0.05018 0.02662 -0.00319 0.00319 0.06193 17
15486129 438.00 -0.02419 -0.07603 -0.00133 0.00133 0.06192 16
15491129 435.00 -0.02688 -0.07279 -0.02792 0.02792 0.06215 16
15496129 511.00 0.04122 -0.01261 -0.07163 0.07163 0.06269 17
15501129 496.00 0.02778 -0.04107 -0.05291 0.05291 0.06311 17
15506129 395.00 -0.06272 -0.10864 -0.03320 0.03320 0.06322 16
15511129 468.00 0.00269 -0.01545 -0.06189 0.06189 0.06367 16
15516129 493.00 0.02509 0.00598 -0.05682 0.05682 0.06405 16
15521129 418.00 -0.04211 -0.04780 -0.01018 0.01018 0.06396 17
15526129 440.00 -0.02240 -0.00448 -0.00529 0.00529 0.06397 17
15531129 536.00 0.06362 0.06975 -0.01013 0.01013 0.06379 16
15536129 465.00 0.00000 -0.00873 0.02498 0.02498 0.06401 16
15541129 410.00 -0.04928 -0.03806 0.02680 0.02680 0.06408 16
15546129 479.00 0.01254 0.03418 -0.01440 0.01440 0.06421 17
15551129 450.00 -0.01344 0.00483 -0.01152 0.01152 0.06430 17
15556129 359.00 -0.09498 -0.05120 0.00943 0.00943 0.06431 16
15561129 417.00 -0.04301 0.02524 -0.00944 0.00944 0.06440 17
15566129 434.00 -0.02778 0.03707 -0.00914 0.00914 0.06448 16
15571129 345.00 -0.10753 -0.03041 0.02070 0.02070 0.06461 17
15576130 417.00 -0.04301 0.04424 0.01796 0.01796 0.06466 17
15581129 481.00 0.01434 0.07294 0.01835 0.01835 0.06472 17
15586130 428.00 -0.03315 0.00041 0.04760 0.04760 0.06494 16
15591130 382.00 -0.07437 -0.03518 0.03207 0.03207 0.06506 17
15596130 453.00 -0.01075 0.02640 -0.01669 0.01669 0.06514 16
15601130 426.00 -0.03495 -0.00976 -0.01664 0.01664 0.06513 16
15606130 355.00 -0.09857 -0.05752 -0.00156 0.00156 0.06483 17
15611130 466.00 0.00090 0.04402 -0.01636 0.01636 0.06479 16
15616130 484.00 0.01703 0.03056 -0.00276 0.00276 0.06439 17
15621130 421.00 -0.03943 -0.03515 0.02730 0.02730 0.06454 16
15626130 450.00 -0.01344 -0.00590 0.00498 0.00498 0.06444 17
15631130 528.00 0.05645 0.04195 -0.01754 0.01754 0.06410 17
15636130 471.00 0.00538 -0.02798 0.00585 0.00585 0.06348 17
15641130 437.00 -0.02509 -0.04724 0.00398 0.00398 0.06330 17
15646130 547.00 0.07348 0.04325 -0.02535 0.02535 0.06229 17
15651130 528.00 0.05645 0.00049 -0.00790 0.00790 0.06147 17
15656130 433.00 -0.02867 -0.07278 0.01032 0.01032 0.06135 16
15661130 518.00 0.04749 0.01662 -0.02353 0.02353 0.06103 17
15666130 567.00 0.09140 0.03894 -0.02495 0.02495 0.06116 16
15671130 468.00 0.00269 -0.05153 0.01491 0.01491 0.06124 16
15676130 482.00 0.01523 -0.01805 0.00178 0.00178 0.06098 17
15681130 536.00 0.06362 0.02959 -0.02834 0.02834 0.06125 16
15686130 451.00 -0.01254 -0.03935 -0.00997 0.00997 0.06104 17
15691130 422.00 -0.03853 -0.03266 -0.00389 0.00389 0.06051 17
15696130 511.00 0.04122 0.05466 -0.01864 0.01864 0.05999 16
15701130 496.00 0.02778 0.02673 0.01019 0.01019 0.05980 16
15706130 429.00 -0.03226 -0.02538 0.03723 0.03723 0.05891 17
15711130 500.00 0.03136 0.04143 0.01329 0.01329 0.05799 17
15716130 549.00 0.07527 0.05699 0.00957 0.00957 0.05751 17
15721130 451.00 -0.01254 -0.03986 0.03391 0.03391 0.05698 16
15726130 490.00 0.02240 0.00310 0.01280 0.01280 0.05479 16
15731130 580.00 0.10305 0.05837 -0.01045 0.01045 0.05428 17
15736130 495.00 0.02688 -0.03633 0.01377 0.01377 0.05224 16
15741130 481.00 0.01434 -0.03643 0.00895 0.00895 0.05091 17
15746131 546.00 0.07258 0.01990 -0.02792 0.02792 0.05031 17
15751131 538.00 0.06541 -0.00116 -0.01750 0.01750 0.04976 16
15756131 462.00 -0.00269 -0.05726 0.00306 0.00306 0.04958 16
15761131 556.00 0.08154 0.03245 -0.01466 0.01466 0.04968 16
15766131 578.00 0.10125 0.02871 -0.00884 0.00884 0.04963 17
15771131 477.00 0.01075 -0.05823 0.01622 0.01622 0.04960 17
15776131 499.00 0.03047 -0.01559 -0.00900 0.00900 0.04960 16
15781131 580.00 0.10305 0.04878 -0.02940 0.02940 0.04908 17
15786131 506.00 0.03674 -0.02498 0.00572 0.00572 0.04832 17
15791131 474.00 0.00806 -0.03293 0.01361 0.01361 0.04723 17
15796131 562.00 0.08692 0.04694 -0.01491 0.01491 0.04557 16
15801131 538.00 0.06541 0.01004 -0.00003 0.00003 0.04534 17
15806131 456.00 -0.00806 -0.04895 0.01981 0.01981 0.04447 16
15811131 526.00 0.05466 0.02666 -0.00718 0.00718 0.04446 16
15816131 544.00 0.07079 0.02973 -0.01112 0.01112 0.04455 17
15821131 459.00 -0.00538 -0.04023 0.01572 0.01572 0.04350 16
15826131 485.00 0.01792 0.00118 0.00309 0.00309 0.04247 17
15831131 569.00 0.09319 0.06161 -0.00954 0.00954 0.04248 16
15836131 461.00 -0.00358 -0.04082 0.01686 0.01686 0.04204 16
15841131 457.00 -0.00717 -0.02169 0.01016 0.01016 0.04171 17
15846131 526.00 0.05466 0.03979 -0.01997 0.01997 0.04181 16
15851131 492.00 0.02419 -0.00045 -0.00121 0.00121 0.04180 16
15856131 425.00 -0.03584 -0.04361 0.01545 0.01545 0.04084 16
15861131 496.00 0.02778 0.03026 -0.00995 0.00995 0.03901 17
15866131 496.00 0.02778 0.01913 -0.00871 0.00871 0.03892 16
15871131 414.00 -0.04570 -0.04335 0.01352 0.01352 0.03781 17
15876131 446.00 -0.01703 0.00439 -0.00343 0.00343 0.03728 16
15881131 515.00 0.04480 0.05389 -0.01181 0.01181 0.03664 16
15886131 454.00 -0.00986 -0.01273 0.02094 0.02094 0.03560 17
15891131 439.00 -0.02330 -0.01683 0.02245 0.02245 0.03539 16
15896131 506.00 0.03674 0.03680 -0.00664 0.00664 0.03351 17
15901132 477.00 0.01075 -0.00326 -0.00016 0.00016 0.03308 16
15906132 415.00 -0.04480 -0.04654 0.00842 0.00842 0.03119 17
15911132 469.00 0.00358 0.01279 -0.01658 0.01658 0.02963 16
15916132 522.00 0.05108 0.04193 -0.01324 0.01324 0.02952 16
15921132 440.00 -0.02240 -0.03746 0.01889 0.01889 0.02916 17
15926132 467.00 0.00179 -0.00356 0.00819 0.00819 0.02857 16
15931132 491.00 0.02330 0.01294 -0.01766 0.01766 0.02713 16
15936132 430.00 -0.03136 -0.03595 -0.01027 0.01027 0.02401 16
15941132 402.00 -0.05645 -0.03507 -0.01206 0.01206 0.02201 17
15946132 516.00 0.04570 0.06422 -0.01923 0.01923 0.02171 17
15951132 475.00 0.00896 0.00688 0.01375 0.01375 0.02165 16
15956132 358.00 -0.09588 -0.07460 0.02368 0.02368 0.02147 17
15961132 435.00 -0.02688 0.02027 -0.02436 0.02436 0.02065 16
15966132 473.00 0.00717 0.04342 -0.02667 0.02667 0.01890 17
15971132 360.00 -0.09409 -0.04892 0.01938 0.01938 0.01710 17
15976132 417.00 -0.04301 0.02068 0.01297 0.01297 0.01644 16
15981132 502.00 0.03315 0.07377 -0.00105 0.00105 0.01642 17
15986132 449.00 -0.01434 0.00071 0.03487 0.03487 0.01676 17
15991132 400.00 -0.05824 -0.03683 0.03489 0.03489 0.01683 16
15996132 485.00 0.01792 0.03541 -0.01149 0.01149 0.01622 17
16001132 481.00 0.01434 0.00976 -0.01060 0.01060 0.01580 17
16006132 396.00 -0.06183 -0.05953 0.01036 0.01036 0.01557 17
16011132 482.00 0.01523 0.02340 -0.01155 0.01155 0.01507 17
16016132 477.00 0.01075 0.00436 -0.01916 0.01916 0.01469 17
16021132 434.00 -0.02778 -0.03184 0.00250 0.00250 0.01462 16
16026132 468.00 0.00269 0.00362 -0.00285 0.00285 0.01459 16
16031132 503.00 0.03405 0.02266 -0.01044 0.01044 0.01460 17
16036132 408.00 -0.05108 -0.05574 -0.00051 0.00051 0.01435 16
16041132 390.00 -0.06720 -0.03883 -0.01893 0.01893 0.01427 17
16046132 630.00 0.14785 0.14571 -0.01905 0.01905 0.01432 16
16051132 562.00 0.08692 0.02125 0.05400 0.05400 0.01474 16
16056133 328.00 -0.12276 -0.15852 0.05694 0.05694 0.01522 17
16061133 472.00 0.00627 0.01574 -0.05973 0.05973 0.01572 16
16066133 548.00 0.07437 0.06302 -0.07633 0.07633 0.01639 17
16071133 424.00 -0.03674 -0.05139 0.02430 0.02430 0.01643 16
16076133 476.00 0.00986 0.01056 0.03564 0.03564 0.01661 16
16081133 581.00 0.10394 0.07734 -0.00512 0.00512 0.01647 17
16086133 487.00 0.01971 -0.02881 0.01870 0.01870 0.01618 16
16091133 406.00 -0.05287 -0.07343 0.01550 0.01550 0.01602 17
16096133 630.00 0.14785 0.11327 -0.02558 0.02558 0.01611 16
16101133 531.00 0.05914 -0.01522 0.00742 0.00742 0.01602 17
16106133 353.00 -0.10036 -0.13427 0.02293 0.02293 0.01623 16
16111133 622.00 0.14068 0.11468 -0.03923 0.03923 0.01646 17
16116133 615.00 0.13441 0.05065 -0.01153 0.01153 0.01655 17
16121133 382.00 -0.07437 -0.13978 0.05007 0.05007 0.01677 17
16126133 689.00 0.20072 0.13213 0.00042 0.00042 0.01673 17
16131133 816.00 0.31452 0.13971 0.01122 0.01122 0.01666 17
16136133 362.00 -0.09229 -0.25971 0.06920 0.06920 0.01730 16
16141133 477.00 0.01075 -0.06417 -0.05241 0.05241 0.01778 17
16146133 568.00 0.09229 0.03547 -0.15581 0.15581 0.01909 17
16151133 183.00 -0.25269 -0.22560 -0.07776 0.07776 0.01979 16
16156133 375.00 -0.08065 0.05009 -0.04547 0.04547 0.02014 17
16161133 841.00 0.33692 0.37500 0.00658 0.00658 0.01997 17
16166133 748.00 0.25358 0.12914 0.21162 0.21162 0.02183 16
16171133 237.00 -0.20430 -0.29810 0.20854 0.20854 0.02377 16
16176133 694.00 0.20520 0.14857 -0.06776 0.06776 0.02443 16
16181133 644.00 0.16039 0.03249 -0.11734 0.11734 0.02532 16
16186133 291.00 -0.15591 -0.23480 0.02430 0.02430 0.02546 17
16191133 540.00 0.06720 0.05047 -0.02887 0.02887 0.02571 16
16196133 241.00 -0.20072 -0.16155 -0.12177 0.12177 0.02674 17
16201133 708.00 0.21774 0.25302 -0.04288 0.04288 0.02707 17
16206133 621.00 0.13978 0.07645 0.10748 0.10748 0.02777 16
16211133 183.00 -0.25269 -0.25993 0.10878 0.10878 0.02873 16
16216134 367.00 -0.08781 0.00599 -0.08440 0.08440 0.02948 16
16221134 782.00 0.28405 0.30084 -0.10035 0.10035 0.03014 16
16226134 946.00 0.43100 0.24931 0.17978 0.17978 0.03181 17
16231134 586.00 0.10842 -0.16378 0.28223 0.28223 0.03453 17
16236134 422.00 -0.03853 -0.23918 -0.00688 0.00688 0.03446 16
16241134 857.00 0.35125 0.14423 -0.22996 0.22996 0.03667 17
16246134 321.00 -0.12903 -0.30945 -0.12405 0.12405 0.03763 16
16251134 246.00 -0.19624 -0.20422 -0.07985 0.07985 0.03826 17
16256134 616.00 0.13530 0.17849 -0.16170 0.16170 0.03984 16
16261134 730.00 0.23746 0.19493 -0.00533 0.00533 0.03975 17
16266134 904.00 0.39337 0.21629 0.24262 0.24262 0.04209 16
16271134 548.00 0.07437 -0.15326 0.21159 0.21159 0.04404 17
16276134 364.00 -0.09050 -0.21860 -0.05331 0.05331 0.04448 17
16281134 583.00 0.10573 0.04279 -0.21328 0.21328 0.04632 17
16286134 597.00 0.11828 0.04440 -0.08828 0.08828 0.04715 16
16291134 384.00 -0.07258 -0.10785 0.06028 0.06028 0.04761 16
16296134 791.00 0.29211 0.23469 0.04395 0.04395 0.04790 16
16301134 634.00 0.15143 0.01498 0.05323 0.05323 0.04844 17
16306134 363.00 -0.09140 -0.18048 0.06213 0.06213 0.04886 17
16311134 580.00 0.10305 0.06097 -0.05121 0.05121 0.04930 17
16316134 842.00 0.33781 0.21137 -0.04274 0.04274 0.04962 17
16321134 560.00 0.08513 -0.09682 0.10702 0.10702 0.05053 16
16326134 419.00 -0.04122 -0.15751 0.05543 0.05543 0.05105 17
16331134 806.00 0.30556 0.17828 -0.09790 0.09790 0.05194 17
16336134 593.00 0.11470 -0.06166 -0.03451 0.03451 0.05211 17
16341134 486.00 0.01882 -0.11269 0.04591 0.04591 0.05247 17
16346134 490.00 0.02240 -0.05046 -0.05437 0.05437 0.05281 16
16351134 161.00 -0.27240 -0.22539 -0.14472 0.14472 0.05425 17
16356134 611.00 0.13082 0.22913 -0.10039 0.10039 0.05510 16
16361134 855.00 0.34946 0.30817 0.09307 0.09307 0.05593 16
16366134 652.00 0.16756 0.01210 0.26657 0.26657 0.05851 17
16371134 531.00 0.05914 -0.09817 0.15094 0.15094 0.05988 16
16376135 147.00 -0.28495 -0.31793 -0.13352 0.13352 0.06118 17
16381135 463.00 -0.00179 0.07048 -0.24460 0.24460 0.06351 16
16386135 581.00 0.10394 0.14155 -0.07199 0.07199 0.06402 17
16391135 334.00 -0.11738 -0.07826 0.12152 0.12152 0.06501 17
16396135 348.00 -0.10484 -0.01222 0.06535 0.06535 0.06560 17
16401135 263.00 -0.18100 -0.03801 -0.06849 0.06849 0.06628 17
16406135 408.00 -0.05108 0.10673 -0.04215 0.04215 0.06662 16
16411135 808.00 0.30735 0.33658 0.11125 0.11125 0.06757 17
16416135 362.00 -0.09229 -0.14673 0.20492 0.20492 0.06948 16
16421135 282.00 -0.16398 -0.14874 0.05084 0.05084 0.06980 16
16426135 683.00 0.19534 0.18421 -0.12924 0.12924 0.07101 17
16431135 441.00 -0.02151 -0.08842 -0.03840 0.03840 0.07122 17
16436135 201.00 -0.23656 -0.22290 0.02904 0.02904 0.07141 17
16441135 252.00 -0.19086 -0.07166 -0.12410 0.12410 0.07253 16
16446135 376.00 -0.07975 0.07037 -0.15997 0.15997 0.07394 16
16451135 401.00 -0.05735 0.07431 0.01596 0.01596 0.07396 16
16456135 338.00 -0.11380 0.00971 0.11534 0.11534 0.07488 16
16461135 410.00 -0.04928 0.06289 0.05890 0.05890 0.07522 17
16466135 420.00 -0.04032 0.04133 0.01713 0.01713 0.07513 17
16471135 355.00 -0.09857 -0.02653 0.02967 0.02967 0.07523 17
16476135 370.00 -0.08513 -0.00796 0.01085 0.01085 0.07521 17
16481135 432.00 -0.02957 0.03271 -0.01479 0.01479 0.07534 17
16486135 348.00 -0.10484 -0.04725 -0.00353 0.00353 0.07503 16
16491135 308.00 -0.14068 -0.05533 -0.01288 0.01288 0.07481 17
16496135 390.00 -0.06720 0.02819 -0.03996 0.03996 0.07510 17
16501135 318.00 -0.13172 -0.03187 -0.02246 0.02246 0.07521 16
16506135 284.00 -0.16219 -0.03399 -0.00341 0.00341 0.07514 17
16511135 361.00 -0.09319 0.04351 -0.01349 0.01349 0.07516 17
16516135 367.00 -0.08781 0.03295 0.00608 0.00608 0.07503 16
16521135 288.00 -0.15860 -0.03294 0.03157 0.03157 0.07532 17
16526135 313.00 -0.13620 0.00489 0.00605 0.00605 0.07536 17
16531135 369.00 -0.08602 0.04499 -0.01156 0.01156 0.07537 17
16536135 306.00 -0.14247 -0.01819 0.01440 0.01440 0.07551 16
16541135 309.00 -0.13978 -0.00647 0.01699 0.01699 0.07549 16
16546136 371.00 -0.08423 0.03910 -0.00312 0.00312 0.07533 16
16551136 339.00 -0.11290 -0.00438 0.00689 0.00689 0.07486 17
16556136 288.00 -0.15860 -0.04025 0.01061 0.01061 0.07439 17
16561136 348.00 -0.10484 0.01867 -0.01498 0.01498 0.07395 16
16566136 394.00 -0.06362 0.03794 -0.00873 0.00873 0.07327 16
16571136 328.00 -0.12276 -0.03141 0.02136 0.02136 0.07324 16
16576136 307.00 -0.14158 -0.03522 0.00342 0.00342 0.07292 17
16581136 382.00 -0.07437 0.03050 -0.02903 0.02903 0.07316 17
16586136 311.00 -0.13799 -0.03452 -0.01449 0.01449 0.07311 16
16591136 311.00 -0.13799 -0.01771 -0.00116 0.00116 0.07297 16
16596136 422.00 -0.03853 0.06694 -0.00504 0.00504 0.07277 17
16601136 404.00 -0.05466 0.01785 0.02222 0.02222 0.07291 17
16606136 337.00 -0.11470 -0.04391 0.03381 0.03381 0.07302 16
16611136 413.00 -0.04659 0.02243 -0.00555 0.00555 0.07269 17
16616136 456.00 -0.00806 0.03243 -0.01363 0.01363 0.07271 17
16621136 391.00 -0.06631 -0.03868 0.01551 0.01551 0.07236 17
16626136 428.00 -0.03315 -0.00519 0.00429 0.00429 0.07240 16
16631136 508.00 0.03853 0.04100 -0.01486 0.01486 0.07244 16
16636136 433.00 -0.02867 -0.04266 0.00292 0.00292 0.07177 16
16641136 387.00 -0.06989 -0.06287 -0.00722 0.00722 0.07132 16
16646136 485.00 0.01792 0.03003 -0.04190 0.04190 0.07018 17
16651136 438.00 -0.02419 -0.01901 -0.02429 0.02429 0.06965 17
16656136 398.00 -0.06004 -0.03716 0.00280 0.00280 0.06922 17
16661136 457.00 -0.00717 0.02456 -0.01089 0.01089 0.06926 17
16666136 478.00 0.01165 0.03034 -0.00535 0.00535 0.06720 17
16671136 381.00 -0.07527 -0.04741 0.01698 0.01698 0.06529 17
16676136 405.00 -0.05376 -0.00182 -0.00296 0.00296 0.06464 16
16681136 460.00 -0.00448 0.04448 -0.01780 0.01780 0.06364 17
16686136 390.00 -0.06720 -0.01809 0.01140 0.01140 0.06351 17
16691136 360.00 -0.09409 -0.02188 0.01518 0.01518 0.06338 16
16696137 444.00 -0.01882 0.05499 -0.00720 0.00720 0.06223 16
16701137 423.00 -0.03763 0.02000 0.01182 0.01182 0.06192 16
16706137 361.00 -0.09319 -0.02843 0.03151 0.03151 0.06116 16
16711137 431.00 -0.03047 0.03626 0.00706 0.00706 0.06014 17
16716137 463.00 -0.00179 0.04046 0.00349 0.00349 0.05933 17
16721137 392.00 -0.06541 -0.03152 0.02602 0.02602 0.05859 17
16726137 430.00 -0.03136 0.00497 0.01018 0.01018 0.05690 16
16731137 491.00 0.02330 0.03794 -0.00888 0.00888 0.05416 16
16736137 430.00 -0.03136 -0.03108 0.00763 0.00763 0.05417 17
16741137 455.00 -0.00896 -0.00838 0.00582 0.00582 0.05193 17
16746137 524.00 0.05287 0.03281 -0.01048 0.01048 0.05079 16
16751137 462.00 -0.00269 -0.03687 -0.00105 0.00105 0.05000 17
16756137 462.00 -0.00269 -0.02914 -0.00479 0.00479 0.04844 16
16761137 516.00 0.04570 0.01419 -0.02482 0.02482 0.04863 16
16766137 540.00 0.06720 0.01537 -0.00946 0.00946 0.04630 16
16771137 456.00 -0.00806 -0.05736 0.00864 0.00864 0.04427 16
16776137 478.00 0.01165 -0.01841 -0.01854 0.01854 0.04392 17
16781137 557.00 0.08244 0.04311 -0.03101 0.03101 0.04210 17
16786137 454.00 -0.00986 -0.04887 0.00083 0.00083 0.04122 16
16791137 406.00 -0.05287 -0.05408 -0.00462 0.00462 0.04067 17
16796137 490.00 0.02240 0.03916 -0.03804 0.03804 0.04061 16
16801137 457.00 -0.00717 0.00856 -0.01264 0.01264 0.04020 17
16806137 390.00 -0.06720 -0.02977 0.02256 0.02256 0.03981 17
16811137 459.00 -0.00538 0.04478 0.00760 0.00760 0.03937 17
16816137 475.00 0.00896 0.04475 0.00887 0.00887 0.03903 17
16821137 393.00 -0.06452 -0.02539 0.03304 0.03304 0.03829 16
16826137 413.00 -0.04659 0.00792 0.01551 0.01551 0.03789 17
16831137 481.00 0.01434 0.05631 -0.00291 0.00291 0.03694 17
16836137 411.00 -0.04839 -0.01668 0.01993 0.01993 0.03680 17
16841137 389.00 -0.06810 -0.02246 0.01836 0.01836 0.03652 16
16846137 475.00 0.00896 0.04805 -0.00882 0.00882 0.03607 17
16851137 449.00 -0.01434 0.00473 0.00468 0.00468 0.03467 17
16856138 386.00 -0.07079 -0.04441 0.01818 0.01818 0.03384 17
16861137 455.00 -0.00896 0.02148 -0.00981 0.00981 0.03301 16
16866138 479.00 0.01254 0.02350 -0.01282 0.01282 0.03047 17
16871138 397.00 -0.06093 -0.04916 0.01016 0.01016 0.02907 17
16876138 420.00 -0.04032 -0.01270 -0.00709 0.00709 0.02780 17
16881138 492.00 0.02419 0.04060 -0.02363 0.02363 0.02559 16
16886138 434.00 -0.02778 -0.02227 0.00441 0.00441 0.02492 16
16891138 387.00 -0.06989 -0.04580 0.00730 0.00730 0.02377 17
16896138 478.00 0.01165 0.03885 -0.02226 0.02226 0.02334 17
16901138 457.00 -0.00717 0.00534 -0.00872 0.00872 0.02275 17
16906138 383.00 -0.07348 -0.04808 0.01387 0.01387 0.02246 17
16911138 465.00 0.00000 0.03283 -0.00651 0.00651 0.02142 16
16916138 477.00 0.01075 0.02582 -0.00706 0.00706 0.01944 16
16921138 385.00 -0.07168 -0.04984 0.01517 0.01517 0.01908 16
16926138 419.00 -0.04122 -0.00034 -0.00425 0.00425 0.01783 17
16931138 497.00 0.02867 0.05549 -0.01660 0.01660 0.01761 17
16936138 423.00 -0.03763 -0.02224 0.01697 0.01697 0.01749 16
16941138 392.00 -0.06541 -0.03257 0.01667 0.01667 0.01642 17
16946138 478.00 0.01165 0.04347 -0.01657 0.01657 0.01498 17
16951138 446.00 -0.01703 0.00060 -0.00371 0.00371 0.01486 16
16956138 396.00 -0.06183 -0.03440 0.01640 0.01640 0.01387 16
16961138 440.00 -0.02240 0.01350 -0.00616 0.00616 0.01334 17
16966138 467.00 0.00179 0.02619 -0.01145 0.01145 0.01329 17
16971138 374.00 -0.08154 -0.04949 0.00792 0.00792 0.01307 17
16976138 387.00 -0.06989 -0.01313 -0.00777 0.00777 0.01304 16
16981138 482.00 0.01523 0.06256 -0.01916 0.01916 0.01308 17
16986138 436.00 -0.02599 0.00177 0.01935 0.01935 0.01324 17
16991138 402.00 -0.05645 -0.02348 0.03245 0.03245 0.01344 16
16996138 457.00 -0.00717 0.02445 -0.00280 0.00280 0.01306 17
17001138 425.00 -0.03584 -0.01074 -0.01182 0.01182 0.01296 16
17006138 384.00 -0.07258 -0.03418 -0.00182 0.00182 0.01294 17
17011138 463.00 -0.00179 0.03689 -0.00829 0.00829 0.01289 16
17016138 485.00 0.01792 0.03213 0.00553 0.00553 0.01289 17
17021139 368.00 -0.08692 -0.06668 0.02047 0.02047 0.01277 17
17026139 471.00 0.00538 0.03398 -0.00730 0.00730 0.01279 16
17031139 521.00 0.05018 0.04799 -0.00982 0.00982 0.01277 17
17036139 367.00 -0.08781 -0.08582 0.01800 0.01800 0.01281 16
17041139 354.00 -0.09946 -0.05274 -0.01877 0.01877 0.01282 17
17046139 507.00 0.03763 0.08223 -0.05358 0.05358 0.01333 16
17051139 478.00 0.01165 0.02386 0.01068 0.01068 0.01337 17
17056139 486.00 0.01882 0.01308 0.06430 0.06430 0.01390 17
17061139 577.00 0.10036 0.05883 0.03842 0.03842 0.01414 18
17066139 600.00 0.12097 0.02843 0.02324 0.02324 0.01428 17
17071139 313.00 -0.13620 -0.19721 0.00014 0.00014 0.01407 17
17076139 351.00 -0.10215 -0.07672 -0.09512 0.09512 0.01499 17
17081139 682.00 0.19444 0.19258 -0.10017 0.10017 0.01570 17
17086139 544.00 0.07079 0.00222 0.05714 0.05714 0.01612 17
17091139 489.00 0.02151 -0.04630 0.11029 0.11029 0.01722 17
17096139 505.00 0.03584 -0.01958 -0.01225 0.01225 0.01729 16
17101139 425.00 -0.03584 -0.06513 -0.08019 0.08019 0.01787 17
17106139 493.00 0.02509 0.01800 -0.04299 0.04299 0.01796 16
17111139 600.00 0.12097 0.08673 0.01435 0.01435 0.01805 16
17116139 573.00 0.09677 0.02344 0.05974 0.05974 0.01851 17
17121139 335.00 -0.11649 -0.15242 0.02790 0.02790 0.01863 16
17126139 662.00 0.17652 0.14626 -0.04558 0.04558 0.01905 17
17131139 510.00 0.04032 -0.02860 -0.01324 0.01324 0.01903 16
17136139 392.00 -0.06541 -0.09587 0.03264 0.03264 0.01933 16
17141139 508.00 0.03853 0.03611 -0.02743 0.02743 0.01953 17
17146139 578.00 0.10125 0.07247 -0.03345 0.03345 0.01944 17
17151139 689.00 0.20072 0.10824 0.06549 0.06549 0.01986 17
17156139 582.00 0.10484 -0.03293 0.10204 0.10204 0.02085 17
17161139 578.00 0.10125 -0.03863 0.02146 0.02146 0.02095 17
17166139 707.00 0.21685 0.04901 -0.04358 0.04358 0.02134 17
17171139 644.00 0.16039 -0.03906 -0.01396 0.01396 0.02131 17
17176139 414.00 -0.04570 -0.19149 -0.01885 0.01885 0.02146 17
17181139 366.00 -0.08871 -0.12508 -0.12330 0.12330 0.02252 16
17186140 640.00 0.15681 0.14323 -0.13464 0.13464 0.02375 17
17191140 697.00 0.20789 0.12718 0.03945 0.03945 0.02399 17
17196140 463.00 -0.00179 -0.08933 0.14435 0.14435 0.02537 17
17201140 415.00 -0.04480 -0.06946 0.01807 0.01807 0.02543 17
17206140 838.00 0.33423 0.26139 -0.06275 0.06275 0.02574 17
17211140 305.00 -0.14337 -0.22567 0.03744 0.03744 0.02605 16
17216140 354.00 -0.09946 -0.07176 0.01524 0.01524 0.02616 17
17221140 694.00 0.20520 0.21390 -0.08198 0.08198 0.02672 16
17226140 643.00 0.15950 0.08044 0.04179 0.04179 0.02704 16
17231140 562.00 0.08692 -0.02395 0.15855 0.15855 0.02854 16
17236140 388.00 -0.06900 -0.13943 0.02672 0.02672 0.02873 17
17241140 501.00 0.03226 0.00637 -0.12007 0.12007 0.02987 17
17246140 605.00 0.12545 0.07792 -0.06644 0.06644 0.03043 16
17251140 648.00 0.16398 0.06452 0.06969 0.06969 0.03111 16
17256140 445.00 -0.01792 -0.11468 0.07532 0.07532 0.03182 17
17261140 579.00 0.10215 0.02576 -0.03103 0.03103 0.03188 17
17266140 778.00 0.28047 0.13898 -0.03565 0.03565 0.03214 17
17271140 228.00 -0.21237 -0.31283 0.02146 0.02146 0.03227 17
17276140 504.00 0.03495 0.03233 -0.06536 0.06536 0.03274 16
17281140 867.00 0.36022 0.27125 -0.07903 0.07903 0.03322 16
17286140 327.00 -0.12366 -0.23195 0.08278 0.08278 0.03404 16
17291140 495.00 0.02688 -0.00382 0.05075 0.05075 0.03450 17
17296140 871.00 0.36380 0.25596 -0.05761 0.05761 0.03470 17
17301140 456.00 -0.00806 -0.16133 0.04361 0.04361 0.03501 16
17306140 626.00 0.14427 0.02048 0.06930 0.06930 0.03547 16
17311140 499.00 0.03047 -0.08040 -0.05570 0.05570 0.03595 17
17316140 573.00 0.09677 0.00926 -0.07840 0.07840 0.03665 17
17321140 342.00 -0.11022 -0.14272 -0.03737 0.03737 0.03669 16
17326140 788.00 0.28943 0.24237 -0.01360 0.01360 0.03667 17
17331140 376.00 -0.07975 -0.14761 0.03923 0.03923 0.03704 16
17336140 248.00 -0.19444 -0.14756 0.00354 0.00354 0.03687 16
17341140 354.00 -0.09946 0.03075 -0.11514 0.11514 0.03784 17
17346141 251.00 -0.19176 -0.01040 -0.08592 0.08592 0.03861 16
17351141 545.00 0.07168 0.23357 0.06289 0.06289 0.03919 16
17356141 890.00 0.38082 0.36479 0.20615 0.20615 0.04107 16
17361141 329.00 -0.12186 -0.21565 0.24054 0.24054 0.04338 17
17366141 219.00 -0.22043 -0.20453 0.01069 0.01069 0.04336 17
17371141 243.00 -0.19892 -0.08262 -0.24325 0.24325 0.04569 16
17376141 690.00 0.20161 0.27262 -0.13765 0.13765 0.04700 16
17381141 835.00 0.33154 0.22393 0.17931 0.17931 0.04855 17
17386141 239.00 -0.20251 -0.32525 0.22617 0.22617 0.05077 17
17391141 228.00 -0.21237 -0.19246 -0.09707 0.09707 0.05167 17
17396141 756.00 0.26075 0.25968 -0.25365 0.25365 0.05398 16
17401141 712.00 0.22133 0.08861 0.02653 0.02653 0.05416 17
17406141 230.00 -0.21057 -0.30547 0.17571 0.17571 0.05578 17
17411141 111.00 -0.31720 -0.23446 -0.11307 0.11307 0.05684 17
17416141 238.00 -0.20341 0.00341 -0.31320 0.31320 0.05991 17
17421141 345.00 -0.10753 0.12406 -0.10807 0.10807 0.06083 17
